Sensor Model:   CX-1050-CU-HT-1.4L
Serial Number:  X93305
Data Format:    4      (Log Ohms/Kelvin)
SetPoint Limit: 325.0      (Kelvin)
Temperature coefficient:  1 (Negative)
Number of Breakpoints:   146

No.   Units      Temperature (K)

  1  1.84373       325.000
  2  1.85118       319.000
  3  1.85815       313.500
  4  1.86526       308.000
  5  1.87251       302.500
  6  1.87992       297.000
  7  1.88748       291.500
  8  1.89521       286.000
  9  1.90310       280.500
 10  1.91116       275.000
 11  1.91940       269.500
 12  1.92783       264.000
 13  1.93644       258.500
 14  1.94525       253.000
 15  1.95427       247.500
 16  1.96349       242.000
 17  1.97294       236.500
 18  1.98261       231.000
 19  1.99161       226.000
 20  2.00081       221.000
 21  2.01022       216.000
 22  2.01984       211.000
 23  2.02969       206.000
 24  2.03978       201.000
 25  2.05011       196.000
 26  2.06069       191.000
 27  2.07153       186.000
 28  2.08265       181.000
 29  2.09406       176.000
 30  2.10577       171.000
 31  2.11659       166.500
 32  2.12767       162.000
 33  2.13903       157.500
 34  2.15068       153.000
 35  2.16264       148.500
 36  2.17492       144.000
 37  2.18755       139.500
 38  2.20055       135.000
 39  2.21392       130.500
 40  2.22616       126.500
 41  2.23873       122.500
 42  2.25167       118.500
 43  2.26499       114.500
 44  2.27872       110.500
 45  2.29290       106.500
 46  2.30754       102.500
 47  2.31889        99.500
 48  2.32855        97.000
 49  2.33844        94.500
 50  2.34856        92.000
 51  2.35893        89.500
 52  2.36956        87.000
 53  2.38046        84.500
 54  2.39166        82.000
 55  2.40317        79.500
 56  2.41499        77.000
 57  2.42717        74.500
 58  2.43720        72.500
 59  2.44746        70.500
 60  2.45799        68.500
 61  2.46880        66.500
 62  2.47991        64.500
 63  2.49134        62.500
 64  2.50310        60.500
 65  2.51460        58.600
 66  2.52709        56.600
 67  2.53998        54.600
 68  2.55196        52.800
 69  2.56431        51.000
 70  2.57707        49.200
 71  2.59025        47.400
 72  2.60390        45.600
 73  2.61804        43.800
 74  2.63108        42.200
 75  2.64455        40.600
 76  2.65851        39.000
 77  2.67300        37.400
 78  2.68806        35.800
 79  2.70275        34.300
 80  2.71801        32.800
 81  2.73393        31.300
 82  2.74942        29.900
 83  2.76558        28.500
 84  2.78248        27.100
 85  2.79892        25.800
 86  2.81614        24.500
 87  2.83283        23.300
 88  2.85033        22.100
 89  2.86879        20.900
 90  2.88175        20.100
 91  2.89260        19.450
 92  2.90384        18.800
 93  2.91548        18.150
 94  2.92756        17.500
 95  2.93914        16.900
 96  2.95116        16.300
 97  2.96366        15.700
 98  2.97670        15.100
 99  2.98918        14.550
100  3.00218        14.000
101  3.01577        13.450
102  3.02871        12.950
103  3.04224        12.450
104  3.05645        11.950
105  3.07137        11.450
106  3.08553        11.000
107  3.10039        10.550
108  3.11608        10.100
109  3.13266         9.650
110  3.14829         9.250
111  3.16479         8.850
112  3.18230         8.450
113  3.20095         8.050
114  3.21835         7.700
115  3.23681         7.350
116  3.25653         7.000
117  3.27765         6.650
118  3.30039         6.300
119  3.32572         5.940
120  3.34857         5.640
121  3.37320         5.340
122  3.39993         5.040
123  3.42710         4.760
124  3.45667         4.480
125  3.48676         4.220
126  3.51194         4.020
127  3.53479         3.850
128  3.55921         3.680
129  3.58543         3.510
130  3.61198         3.350
131  3.64053         3.190
132  3.66945         3.040
133  3.70065         2.890
134  3.73453         2.740
135  3.76895         2.600
136  3.80638         2.460
137  3.84737         2.320
138  3.88918         2.190
139  3.93143         2.070
140  3.97776         1.950
141  4.02903         1.830
142  4.08129         1.720
143  4.13404         1.620
144  4.19279         1.520
145  4.26499         1.410
146  4.27266         1.400
