Sensor Model:   CX-1070-CU-4L
Serial Number:  X58257
Data Format:    4      (Log Ohms/Kelvin)
SetPoint Limit: 325.0      (Kelvin)
Temperature coefficient:  1 (Negative)
Number of Breakpoints:   131

No.   Units      Temperature (K)

  1  1.81923       325.000
  2  1.82699       319.000
  3  1.83425       313.500
  4  1.84167       308.000
  5  1.84926       302.500
  6  1.85702       297.000
  7  1.86495       291.500
  8  1.87307       286.000
  9  1.88139       280.500
 10  1.88990       275.000
 11  1.89861       269.500
 12  1.90672       264.500
 13  1.91501       259.500
 14  1.92349       254.500
 15  1.93216       249.500
 16  1.94104       244.500
 17  1.95012       239.500
 18  1.95943       234.500
 19  1.96896       229.500
 20  1.97872       224.500
 21  1.98872       219.500
 22  1.99898       214.500
 23  2.00950       209.500
 24  2.02030       204.500
 25  2.03138       199.500
 26  2.04162       195.000
 27  2.05210       190.500
 28  2.06285       186.000
 29  2.07387       181.500
 30  2.08517       177.000
 31  2.09678       172.500
 32  2.10870       168.000
 33  2.12094       163.500
 34  2.13354       159.000
 35  2.14649       154.500
 36  2.15984       150.000
 37  2.17204       146.000
 38  2.18457       142.000
 39  2.19746       138.000
 40  2.21072       134.000
 41  2.22438       130.000
 42  2.23846       126.000
 43  2.25298       122.000
 44  2.26798       118.000
 45  2.28348       114.000
 46  2.29750       110.500
 47  2.31195       107.000
 48  2.32687       103.500
 49  2.34008       100.500
 50  2.35139        98.000
 51  2.36297        95.500
 52  2.37485        93.000
 53  2.38706        90.500
 54  2.39961        88.000
 55  2.41251        85.500
 56  2.42579        83.000
 57  2.43673        81.000
 58  2.44792        79.000
 59  2.45940        77.000
 60  2.47118        75.000
 61  2.48328        73.000
 62  2.49572        71.000
 63  2.50852        69.000
 64  2.52170        67.000
 65  2.53528        65.000
 66  2.54929        63.000
 67  2.56376        61.000
 68  2.57871        59.000
 69  2.59262        57.200
 70  2.60697        55.400
 71  2.62181        53.600
 72  2.63715        51.800
 73  2.65305        50.000
 74  2.66954        48.200
 75  2.68474        46.600
 76  2.70045        45.000
 77  2.71675        43.400
 78  2.73366        41.800
 79  2.75124        40.200
 80  2.76838        38.700
 81  2.78620        37.200
 82  2.80476        35.700
 83  2.82281        34.300
 84  2.84161        32.900
 85  2.86125        31.500
 86  2.88030        30.200
 87  2.90017        28.900
 88  2.92098        27.600
 89  2.94280        26.300
 90  2.96395        25.100
 91  2.98613        23.900
 92  3.00951        22.700
 93  3.03212        21.600
 94  3.05594        20.500
 95  3.07422        19.700
 96  3.08960        19.050
 97  3.10556        18.400
 98  3.12215        17.750
 99  3.13807        17.150
100  3.15460        16.550
101  3.17183        15.950
102  3.18828        15.400
103  3.20539        14.850
104  3.22325        14.300
105  3.24192        13.750
106  3.25969        13.250
107  3.27825        12.750
108  3.29771        12.250
109  3.31814        11.750
110  3.33749        11.300
111  3.35778        10.850
112  3.37917        10.400
113  3.40175         9.950
114  3.42299         9.550
115  3.44536         9.150
116  3.46907         8.750
117  3.49426         8.350
118  3.52111         7.950
119  3.54619         7.600
120  3.57285         7.250
121  3.60137         6.900
122  3.63194         6.550
123  3.66491         6.200
124  3.69956         5.860
125  3.73263         5.560
126  3.76829         5.260
127  3.80706         4.960
128  3.84652         4.680
129  3.88643         4.420
130  3.93000         4.160
131  3.95927         4.000
